# Mon Nov  2 20:32:39 2020 Epoch: 1604345559.66  Duration: 10.0 sec  Rate: 128.5
-9.338880000000000337e+02
-9.175040000000000191e+02
-9.338880000000000337e+02
-9.666559999999999491e+02
-9.502720000000000482e+02
-9.502720000000000482e+02
-9.502720000000000482e+02
-9.338880000000000337e+02
-9.338880000000000337e+02
-9.502720000000000482e+02
-9.666559999999999491e+02
-9.994239999999999782e+02
-9.830399999999999636e+02
-9.830399999999999636e+02
-9.994239999999999782e+02
-9.830399999999999636e+02
-9.994239999999999782e+02
-9.994239999999999782e+02
-9.830399999999999636e+02
-9.666559999999999491e+02
-9.338880000000000337e+02
-9.338880000000000337e+02
-9.338880000000000337e+02
-9.338880000000000337e+02
-9.830399999999999636e+02
-9.666559999999999491e+02
-9.502720000000000482e+02
-9.502720000000000482e+02
-9.502720000000000482e+02
-9.502720000000000482e+02
-9.830399999999999636e+02
-9.666559999999999491e+02
-9.502720000000000482e+02
-9.666559999999999491e+02
-9.502720000000000482e+02
-9.830399999999999636e+02
-9.830399999999999636e+02
-9.666559999999999491e+02
-9.338880000000000337e+02
-9.338880000000000337e+02
-9.338880000000000337e+02
-9.830399999999999636e+02
-9.666559999999999491e+02
-9.666559999999999491e+02
-9.338880000000000337e+02
-9.502720000000000482e+02
-9.502720000000000482e+02
-9.338880000000000337e+02
-9.502720000000000482e+02
-9.502720000000000482e+02
-9.338880000000000337e+02
-9.994239999999999782e+02
-9.830399999999999636e+02
-9.830399999999999636e+02
-9.666559999999999491e+02
-9.502720000000000482e+02
-9.175040000000000191e+02
-9.502720000000000482e+02
-9.502720000000000482e+02
-9.666559999999999491e+02
-9.666559999999999491e+02
-9.830399999999999636e+02
-9.830399999999999636e+02
-9.666559999999999491e+02
-9.338880000000000337e+02
-9.338880000000000337e+02
-9.666559999999999491e+02
-9.830399999999999636e+02
-9.502720000000000482e+02
-9.502720000000000482e+02
-9.338880000000000337e+02
-9.502720000000000482e+02
-9.502720000000000482e+02
-9.502720000000000482e+02
-9.338880000000000337e+02
-9.502720000000000482e+02
-9.338880000000000337e+02
-9.666559999999999491e+02
-9.666559999999999491e+02
-9.338880000000000337e+02
-9.338880000000000337e+02
-9.502720000000000482e+02
-9.338880000000000337e+02
-9.338880000000000337e+02
-9.338880000000000337e+02
-9.502720000000000482e+02
-9.502720000000000482e+02
-9.338880000000000337e+02
-9.338880000000000337e+02
-9.666559999999999491e+02
-9.830399999999999636e+02
-9.502720000000000482e+02
-9.666559999999999491e+02
-9.830399999999999636e+02
-9.502720000000000482e+02
-9.502720000000000482e+02
-9.502720000000000482e+02
-9.502720000000000482e+02
-9.830399999999999636e+02
-9.338880000000000337e+02
-9.666559999999999491e+02
-9.338880000000000337e+02
-9.175040000000000191e+02
-1.097728000000000065e+03
-1.327104000000000042e+03
-1.310720000000000027e+03
-1.064960000000000036e+03
-7.700480000000000018e+02
-6.553600000000000136e+02
-7.864320000000000164e+02
-9.175040000000000191e+02
-9.666559999999999491e+02
-9.666559999999999491e+02
-9.502720000000000482e+02
-9.666559999999999491e+02
-9.666559999999999491e+02
-9.502720000000000482e+02
-9.666559999999999491e+02
-9.502720000000000482e+02
-9.502720000000000482e+02
-9.666559999999999491e+02
-9.338880000000000337e+02
-9.666559999999999491e+02
-9.666559999999999491e+02
-9.666559999999999491e+02
-9.994239999999999782e+02
-9.830399999999999636e+02
-9.666559999999999491e+02
-9.502720000000000482e+02
-9.502720000000000482e+02
-9.502720000000000482e+02
-9.666559999999999491e+02
-9.502720000000000482e+02
-9.502720000000000482e+02
-9.338880000000000337e+02
-9.338880000000000337e+02
-9.830399999999999636e+02
-9.830399999999999636e+02
-1.015807999999999993e+03
-1.015807999999999993e+03
-9.830399999999999636e+02
-9.502720000000000482e+02
-9.338880000000000337e+02
-9.338880000000000337e+02
-9.502720000000000482e+02
-9.666559999999999491e+02
-9.502720000000000482e+02
-9.502720000000000482e+02
-9.666559999999999491e+02
-9.502720000000000482e+02
-9.502720000000000482e+02
-9.830399999999999636e+02
-9.502720000000000482e+02
-9.502720000000000482e+02
-9.502720000000000482e+02
-9.502720000000000482e+02
-9.830399999999999636e+02
-9.994239999999999782e+02
-9.502720000000000482e+02
-9.502720000000000482e+02
-9.502720000000000482e+02
-9.338880000000000337e+02
-9.666559999999999491e+02
-9.666559999999999491e+02
-9.666559999999999491e+02
-9.502720000000000482e+02
-9.502720000000000482e+02
-9.502720000000000482e+02
-9.502720000000000482e+02
-9.666559999999999491e+02
-9.502720000000000482e+02
-9.502720000000000482e+02
-9.830399999999999636e+02
-9.666559999999999491e+02
-9.666559999999999491e+02
-9.502720000000000482e+02
-9.502720000000000482e+02
-9.338880000000000337e+02
-9.502720000000000482e+02
-9.502720000000000482e+02
-9.666559999999999491e+02
-9.830399999999999636e+02
-9.666559999999999491e+02
-9.502720000000000482e+02
-9.666559999999999491e+02
-9.338880000000000337e+02
-9.502720000000000482e+02
-9.338880000000000337e+02
-9.502720000000000482e+02
-9.666559999999999491e+02
-9.830399999999999636e+02
-9.502720000000000482e+02
-9.830399999999999636e+02
-9.666559999999999491e+02
-9.502720000000000482e+02
-9.666559999999999491e+02
-9.502720000000000482e+02
-9.502720000000000482e+02
-9.502720000000000482e+02
-9.338880000000000337e+02
-9.338880000000000337e+02
-9.502720000000000482e+02
-9.830399999999999636e+02
-9.666559999999999491e+02
-9.666559999999999491e+02
-9.338880000000000337e+02
-9.502720000000000482e+02
-9.666559999999999491e+02
-9.830399999999999636e+02
-9.666559999999999491e+02
-9.502720000000000482e+02
-9.175040000000000191e+02
-9.338880000000000337e+02
-9.666559999999999491e+02
-9.830399999999999636e+02
-9.666559999999999491e+02
-9.502720000000000482e+02
-9.502720000000000482e+02
-9.338880000000000337e+02
-9.338880000000000337e+02
-9.666559999999999491e+02
-9.338880000000000337e+02
-9.666559999999999491e+02
-9.502720000000000482e+02
-9.666559999999999491e+02
-9.830399999999999636e+02
-9.666559999999999491e+02
-9.502720000000000482e+02
-9.502720000000000482e+02
-9.175040000000000191e+02
-9.502720000000000482e+02
-9.666559999999999491e+02
-9.830399999999999636e+02
-1.015807999999999993e+03
-9.994239999999999782e+02
-9.666559999999999491e+02
-9.502720000000000482e+02
-9.338880000000000337e+02
-9.502720000000000482e+02
-1.081344000000000051e+03
-1.261567999999999984e+03
-1.327104000000000042e+03
-1.130496000000000095e+03
-8.028160000000000309e+02
-6.389759999999999991e+02
-7.208959999999999582e+02
-8.519679999999999609e+02
-9.502720000000000482e+02
-9.502720000000000482e+02
-9.666559999999999491e+02
-9.666559999999999491e+02
-9.830399999999999636e+02
-9.502720000000000482e+02
-9.502720000000000482e+02
-9.666559999999999491e+02
-9.830399999999999636e+02
-9.830399999999999636e+02
-9.502720000000000482e+02
-9.502720000000000482e+02
-9.666559999999999491e+02
-9.338880000000000337e+02
-9.175040000000000191e+02
-9.175040000000000191e+02
-9.338880000000000337e+02
-9.666559999999999491e+02
-9.994239999999999782e+02
-9.830399999999999636e+02
-9.830399999999999636e+02
-9.502720000000000482e+02
-9.502720000000000482e+02
-9.502720000000000482e+02
-9.338880000000000337e+02
-9.338880000000000337e+02
-9.502720000000000482e+02
-9.830399999999999636e+02
-9.994239999999999782e+02
-9.994239999999999782e+02
-1.015807999999999993e+03
-9.830399999999999636e+02
-9.338880000000000337e+02
-9.175040000000000191e+02
-9.338880000000000337e+02
-9.666559999999999491e+02
-9.830399999999999636e+02
-9.666559999999999491e+02
-9.502720000000000482e+02
-9.666559999999999491e+02
-9.502720000000000482e+02
-9.830399999999999636e+02
-9.666559999999999491e+02
-9.830399999999999636e+02
-9.502720000000000482e+02
-9.502720000000000482e+02
-9.338880000000000337e+02
-9.338880000000000337e+02
-9.338880000000000337e+02
-9.502720000000000482e+02
-9.666559999999999491e+02
-9.830399999999999636e+02
-9.338880000000000337e+02
-9.666559999999999491e+02
-9.338880000000000337e+02
-9.175040000000000191e+02
-9.338880000000000337e+02
-9.502720000000000482e+02
-9.502720000000000482e+02
-9.666559999999999491e+02
-9.502720000000000482e+02
-9.502720000000000482e+02
-9.502720000000000482e+02
-9.502720000000000482e+02
-9.502720000000000482e+02
-9.338880000000000337e+02
-9.338880000000000337e+02
-9.502720000000000482e+02
-9.502720000000000482e+02
-9.502720000000000482e+02
-9.994239999999999782e+02
-9.994239999999999782e+02
-9.830399999999999636e+02
-9.338880000000000337e+02
-9.338880000000000337e+02
-9.502720000000000482e+02
-9.502720000000000482e+02
-9.666559999999999491e+02
-9.666559999999999491e+02
-9.502720000000000482e+02
-9.502720000000000482e+02
-9.502720000000000482e+02
-9.502720000000000482e+02
-9.666559999999999491e+02
-9.502720000000000482e+02
-9.830399999999999636e+02
-9.994239999999999782e+02
-9.830399999999999636e+02
-9.994239999999999782e+02
-9.830399999999999636e+02
-9.338880000000000337e+02
-9.502720000000000482e+02
-9.338880000000000337e+02
-9.666559999999999491e+02
-9.830399999999999636e+02
-9.666559999999999491e+02
-9.666559999999999491e+02
-9.666559999999999491e+02
-9.502720000000000482e+02
-9.830399999999999636e+02
-9.830399999999999636e+02
-9.666559999999999491e+02
-9.830399999999999636e+02
-9.666559999999999491e+02
-9.502720000000000482e+02
-9.666559999999999491e+02
-9.502720000000000482e+02
-9.830399999999999636e+02
-9.666559999999999491e+02
-9.338880000000000337e+02
-9.666559999999999491e+02
-9.666559999999999491e+02
-9.666559999999999491e+02
-9.994239999999999782e+02
-9.830399999999999636e+02
-9.666559999999999491e+02
-9.666559999999999491e+02
-9.502720000000000482e+02
-9.666559999999999491e+02
-9.830399999999999636e+02
-9.502720000000000482e+02
-9.502720000000000482e+02
-9.502720000000000482e+02
-9.666559999999999491e+02
-1.130496000000000095e+03
-1.261567999999999984e+03
-1.212415999999999940e+03
-9.666559999999999491e+02
-6.881280000000000427e+02
-7.045119999999999436e+02
-8.519679999999999609e+02
-9.502720000000000482e+02
-9.830399999999999636e+02
-9.666559999999999491e+02
-9.175040000000000191e+02
-9.338880000000000337e+02
-9.502720000000000482e+02
-9.338880000000000337e+02
-9.502720000000000482e+02
-9.830399999999999636e+02
-9.338880000000000337e+02
-9.666559999999999491e+02
-9.502720000000000482e+02
-9.502720000000000482e+02
-9.666559999999999491e+02
-9.502720000000000482e+02
-9.666559999999999491e+02
-9.666559999999999491e+02
-9.666559999999999491e+02
-9.830399999999999636e+02
-9.666559999999999491e+02
-9.666559999999999491e+02
-9.666559999999999491e+02
-9.666559999999999491e+02
-9.994239999999999782e+02
-9.994239999999999782e+02
-9.830399999999999636e+02
-9.994239999999999782e+02
-9.830399999999999636e+02
-9.830399999999999636e+02
-9.830399999999999636e+02
-9.830399999999999636e+02
-9.666559999999999491e+02
-9.338880000000000337e+02
-9.338880000000000337e+02
-9.502720000000000482e+02
-9.666559999999999491e+02
-9.502720000000000482e+02
-9.502720000000000482e+02
-9.338880000000000337e+02
-9.666559999999999491e+02
-9.994239999999999782e+02
-9.830399999999999636e+02
-9.666559999999999491e+02
-9.338880000000000337e+02
-9.666559999999999491e+02
-9.502720000000000482e+02
-9.502720000000000482e+02
-9.666559999999999491e+02
-9.666559999999999491e+02
-9.502720000000000482e+02
-9.666559999999999491e+02
-9.502720000000000482e+02
-9.830399999999999636e+02
-9.502720000000000482e+02
-9.338880000000000337e+02
-9.502720000000000482e+02
-9.830399999999999636e+02
-9.830399999999999636e+02
-9.502720000000000482e+02
-9.175040000000000191e+02
-9.338880000000000337e+02
-9.338880000000000337e+02
-9.830399999999999636e+02
-9.666559999999999491e+02
-9.994239999999999782e+02
-9.830399999999999636e+02
-9.666559999999999491e+02
-9.338880000000000337e+02
-9.666559999999999491e+02
-9.338880000000000337e+02
-9.994239999999999782e+02
-9.666559999999999491e+02
-9.830399999999999636e+02
-9.502720000000000482e+02
-9.666559999999999491e+02
-9.338880000000000337e+02
-9.666559999999999491e+02
-9.502720000000000482e+02
-9.338880000000000337e+02
-9.502720000000000482e+02
-9.175040000000000191e+02
-9.502720000000000482e+02
-9.666559999999999491e+02
-9.338880000000000337e+02
-9.830399999999999636e+02
-9.666559999999999491e+02
-9.666559999999999491e+02
-9.338880000000000337e+02
-9.175040000000000191e+02
-9.502720000000000482e+02
-9.666559999999999491e+02
-9.666559999999999491e+02
-9.830399999999999636e+02
-9.338880000000000337e+02
-9.666559999999999491e+02
-9.502720000000000482e+02
-9.338880000000000337e+02
-9.502720000000000482e+02
-9.502720000000000482e+02
-9.666559999999999491e+02
-9.502720000000000482e+02
-9.502720000000000482e+02
-9.175040000000000191e+02
-9.175040000000000191e+02
-9.502720000000000482e+02
-1.015807999999999993e+03
-9.830399999999999636e+02
-9.830399999999999636e+02
-9.502720000000000482e+02
-9.502720000000000482e+02
-9.175040000000000191e+02
-9.338880000000000337e+02
-9.502720000000000482e+02
-9.666559999999999491e+02
-9.830399999999999636e+02
-9.666559999999999491e+02
-9.338880000000000337e+02
-9.338880000000000337e+02
-9.175040000000000191e+02
-9.338880000000000337e+02
-1.097728000000000065e+03
-1.327104000000000042e+03
-1.277951999999999998e+03
-1.064960000000000036e+03
-7.536639999999999873e+02
-6.553600000000000136e+02
-7.700480000000000018e+02
-9.175040000000000191e+02
-9.830399999999999636e+02
-9.502720000000000482e+02
-9.502720000000000482e+02
-9.666559999999999491e+02
-9.666559999999999491e+02
-9.666559999999999491e+02
-9.830399999999999636e+02
-9.502720000000000482e+02
-9.666559999999999491e+02
-9.502720000000000482e+02
-9.666559999999999491e+02
-9.502720000000000482e+02
-9.502720000000000482e+02
-9.502720000000000482e+02
-9.666559999999999491e+02
-9.338880000000000337e+02
-9.175040000000000191e+02
-9.338880000000000337e+02
-9.666559999999999491e+02
-9.830399999999999636e+02
-9.830399999999999636e+02
-9.666559999999999491e+02
-9.666559999999999491e+02
-9.502720000000000482e+02
-9.666559999999999491e+02
-9.830399999999999636e+02
-9.830399999999999636e+02
-9.502720000000000482e+02
-9.666559999999999491e+02
-9.830399999999999636e+02
-9.666559999999999491e+02
-9.666559999999999491e+02
-9.338880000000000337e+02
-9.175040000000000191e+02
-9.502720000000000482e+02
-9.502720000000000482e+02
-9.666559999999999491e+02
-9.502720000000000482e+02
-9.175040000000000191e+02
-9.502720000000000482e+02
-9.338880000000000337e+02
-9.502720000000000482e+02
-9.338880000000000337e+02
-9.666559999999999491e+02
-9.830399999999999636e+02
-9.830399999999999636e+02
-9.666559999999999491e+02
-9.666559999999999491e+02
-9.502720000000000482e+02
-9.830399999999999636e+02
-9.666559999999999491e+02
-9.666559999999999491e+02
-9.502720000000000482e+02
-9.338880000000000337e+02
-9.338880000000000337e+02
-9.502720000000000482e+02
-9.830399999999999636e+02
-9.830399999999999636e+02
-9.502720000000000482e+02
-9.666559999999999491e+02
-9.666559999999999491e+02
-9.338880000000000337e+02
-9.502720000000000482e+02
-9.666559999999999491e+02
-9.502720000000000482e+02
-9.666559999999999491e+02
-9.502720000000000482e+02
-9.502720000000000482e+02
-9.666559999999999491e+02
-9.175040000000000191e+02
-9.338880000000000337e+02
-9.502720000000000482e+02
-9.502720000000000482e+02
-9.666559999999999491e+02
-9.830399999999999636e+02
-9.666559999999999491e+02
-9.502720000000000482e+02
-9.338880000000000337e+02
-9.338880000000000337e+02
-9.666559999999999491e+02
-9.994239999999999782e+02
-9.994239999999999782e+02
-9.830399999999999636e+02
-9.502720000000000482e+02
-9.338880000000000337e+02
-9.666559999999999491e+02
-9.666559999999999491e+02
-9.830399999999999636e+02
-9.502720000000000482e+02
-9.338880000000000337e+02
-9.338880000000000337e+02
-9.666559999999999491e+02
-9.502720000000000482e+02
-9.338880000000000337e+02
-9.338880000000000337e+02
-9.502720000000000482e+02
-9.666559999999999491e+02
-9.994239999999999782e+02
-9.666559999999999491e+02
-9.830399999999999636e+02
-9.830399999999999636e+02
-9.666559999999999491e+02
-9.666559999999999491e+02
-9.830399999999999636e+02
-9.502720000000000482e+02
-9.502720000000000482e+02
-9.502720000000000482e+02
-9.666559999999999491e+02
-9.666559999999999491e+02
-9.994239999999999782e+02
-9.502720000000000482e+02
-9.502720000000000482e+02
-9.011200000000000045e+02
-1.015807999999999993e+03
-1.179647999999999911e+03
-1.343488000000000056e+03
-1.212415999999999940e+03
-9.011200000000000045e+02
-6.881280000000000427e+02
-7.208959999999999582e+02
-8.192000000000000455e+02
-9.338880000000000337e+02
-9.502720000000000482e+02
-9.338880000000000337e+02
-9.338880000000000337e+02
-9.502720000000000482e+02
-9.502720000000000482e+02
-9.502720000000000482e+02
-9.338880000000000337e+02
-9.502720000000000482e+02
-9.338880000000000337e+02
-9.338880000000000337e+02
-9.338880000000000337e+02
-9.338880000000000337e+02
-9.502720000000000482e+02
-9.666559999999999491e+02
-9.666559999999999491e+02
-9.994239999999999782e+02
-9.666559999999999491e+02
-9.338880000000000337e+02
-9.338880000000000337e+02
-9.502720000000000482e+02
-9.502720000000000482e+02
-9.502720000000000482e+02
-9.338880000000000337e+02
-9.338880000000000337e+02
-9.666559999999999491e+02
-9.666559999999999491e+02
-9.830399999999999636e+02
-9.830399999999999636e+02
-9.666559999999999491e+02
-9.338880000000000337e+02
-9.502720000000000482e+02
-9.502720000000000482e+02
-9.175040000000000191e+02
-9.175040000000000191e+02
-8.847359999999999900e+02
-9.338880000000000337e+02
-9.338880000000000337e+02
-9.502720000000000482e+02
-9.338880000000000337e+02
-9.338880000000000337e+02
-9.502720000000000482e+02
-9.666559999999999491e+02
-9.175040000000000191e+02
-9.338880000000000337e+02
-9.011200000000000045e+02
-9.175040000000000191e+02
-9.338880000000000337e+02
-9.338880000000000337e+02
-9.502720000000000482e+02
-9.175040000000000191e+02
-9.175040000000000191e+02
-9.502720000000000482e+02
-9.175040000000000191e+02
-9.338880000000000337e+02
-9.502720000000000482e+02
-9.338880000000000337e+02
-9.502720000000000482e+02
-9.338880000000000337e+02
-9.338880000000000337e+02
-9.502720000000000482e+02
-9.338880000000000337e+02
-9.175040000000000191e+02
-9.338880000000000337e+02
-9.502720000000000482e+02
-9.338880000000000337e+02
-9.338880000000000337e+02
-9.338880000000000337e+02
-9.666559999999999491e+02
-9.830399999999999636e+02
-9.830399999999999636e+02
-9.666559999999999491e+02
-9.502720000000000482e+02
-9.011200000000000045e+02
-9.338880000000000337e+02
-9.502720000000000482e+02
-9.502720000000000482e+02
-9.338880000000000337e+02
-9.175040000000000191e+02
-9.338880000000000337e+02
-9.666559999999999491e+02
-9.502720000000000482e+02
-9.830399999999999636e+02
-9.502720000000000482e+02
-9.175040000000000191e+02
-9.338880000000000337e+02
-9.338880000000000337e+02
-9.338880000000000337e+02
-9.338880000000000337e+02
-9.175040000000000191e+02
-9.338880000000000337e+02
-9.666559999999999491e+02
-9.502720000000000482e+02
-9.502720000000000482e+02
-9.338880000000000337e+02
-9.338880000000000337e+02
-9.175040000000000191e+02
-9.175040000000000191e+02
-9.338880000000000337e+02
-9.338880000000000337e+02
-9.666559999999999491e+02
-9.994239999999999782e+02
-9.502720000000000482e+02
-9.502720000000000482e+02
-9.175040000000000191e+02
-9.502720000000000482e+02
-1.064960000000000036e+03
-1.228799999999999955e+03
-1.261567999999999984e+03
-1.048576000000000022e+03
-7.700480000000000018e+02
-6.717440000000000282e+02
-7.372799999999999727e+02
-9.011200000000000045e+02
-9.666559999999999491e+02
-9.175040000000000191e+02
-9.502720000000000482e+02
-9.338880000000000337e+02
-9.502720000000000482e+02
-9.666559999999999491e+02
-9.338880000000000337e+02
-9.338880000000000337e+02
-9.502720000000000482e+02
-9.338880000000000337e+02
-9.502720000000000482e+02
-9.502720000000000482e+02
-9.175040000000000191e+02
-9.338880000000000337e+02
-9.338880000000000337e+02
-9.830399999999999636e+02
-9.830399999999999636e+02
-9.502720000000000482e+02
-9.338880000000000337e+02
-9.502720000000000482e+02
-9.502720000000000482e+02
-9.502720000000000482e+02
-9.502720000000000482e+02
-9.502720000000000482e+02
-9.666559999999999491e+02
-9.666559999999999491e+02
-9.666559999999999491e+02
-9.502720000000000482e+02
-9.338880000000000337e+02
-9.175040000000000191e+02
-9.338880000000000337e+02
-9.338880000000000337e+02
-9.666559999999999491e+02
-9.502720000000000482e+02
-9.175040000000000191e+02
-9.175040000000000191e+02
-9.175040000000000191e+02
-9.338880000000000337e+02
-9.830399999999999636e+02
-9.666559999999999491e+02
-9.175040000000000191e+02
-9.338880000000000337e+02
-9.666559999999999491e+02
-9.666559999999999491e+02
-9.830399999999999636e+02
-9.502720000000000482e+02
-9.502720000000000482e+02
-9.502720000000000482e+02
-9.502720000000000482e+02
-9.338880000000000337e+02
-9.666559999999999491e+02
-9.502720000000000482e+02
-9.502720000000000482e+02
-9.502720000000000482e+02
-9.502720000000000482e+02
-9.830399999999999636e+02
-9.830399999999999636e+02
-9.502720000000000482e+02
-9.011200000000000045e+02
-8.847359999999999900e+02
-9.011200000000000045e+02
-9.502720000000000482e+02
-1.015807999999999993e+03
-1.015807999999999993e+03
-9.502720000000000482e+02
-9.338880000000000337e+02
-9.175040000000000191e+02
-9.175040000000000191e+02
-9.502720000000000482e+02
-9.502720000000000482e+02
-9.830399999999999636e+02
-9.830399999999999636e+02
-9.338880000000000337e+02
-9.502720000000000482e+02
-9.666559999999999491e+02
-9.338880000000000337e+02
-9.011200000000000045e+02
-9.175040000000000191e+02
-9.994239999999999782e+02
-1.081344000000000051e+03
-1.015807999999999993e+03
-9.338880000000000337e+02
-9.011200000000000045e+02
-9.338880000000000337e+02
-9.830399999999999636e+02
-9.666559999999999491e+02
-9.666559999999999491e+02
-9.830399999999999636e+02
-9.666559999999999491e+02
-9.666559999999999491e+02
-1.015807999999999993e+03
-1.064960000000000036e+03
-1.097728000000000065e+03
-1.130496000000000095e+03
-1.048576000000000022e+03
-9.175040000000000191e+02
-7.864320000000000164e+02
-7.864320000000000164e+02
-8.355839999999999463e+02
-9.502720000000000482e+02
-1.032192000000000007e+03
-1.097728000000000065e+03
-1.081344000000000051e+03
-9.502720000000000482e+02
-9.011200000000000045e+02
-9.175040000000000191e+02
-1.015807999999999993e+03
-1.032192000000000007e+03
-9.994239999999999782e+02
-9.830399999999999636e+02
-1.015807999999999993e+03
-9.830399999999999636e+02
-9.830399999999999636e+02
-9.502720000000000482e+02
-1.032192000000000007e+03
-1.064960000000000036e+03
-1.097728000000000065e+03
-1.064960000000000036e+03
-1.032192000000000007e+03
-9.502720000000000482e+02
-9.338880000000000337e+02
-9.994239999999999782e+02
-1.146880000000000109e+03
-1.097728000000000065e+03
-1.015807999999999993e+03
-9.338880000000000337e+02
-9.994239999999999782e+02
-1.032192000000000007e+03
-1.015807999999999993e+03
-9.666559999999999491e+02
-9.666559999999999491e+02
-9.666559999999999491e+02
-1.015807999999999993e+03
-9.830399999999999636e+02
-1.015807999999999993e+03
-1.032192000000000007e+03
-1.015807999999999993e+03
-1.015807999999999993e+03
-9.830399999999999636e+02
-9.666559999999999491e+02
-1.015807999999999993e+03
-1.015807999999999993e+03
-9.338880000000000337e+02
-9.175040000000000191e+02
-9.175040000000000191e+02
-9.666559999999999491e+02
-9.830399999999999636e+02
-9.830399999999999636e+02
-9.502720000000000482e+02
-9.830399999999999636e+02
-9.830399999999999636e+02
-9.502720000000000482e+02
-9.338880000000000337e+02
-9.175040000000000191e+02
-9.175040000000000191e+02
-9.502720000000000482e+02
-9.830399999999999636e+02
-9.994239999999999782e+02
-9.830399999999999636e+02
-9.338880000000000337e+02
-9.502720000000000482e+02
-9.502720000000000482e+02
-9.338880000000000337e+02
-9.175040000000000191e+02
-9.338880000000000337e+02
-9.502720000000000482e+02
-9.994239999999999782e+02
-9.830399999999999636e+02
-9.502720000000000482e+02
-9.666559999999999491e+02
-9.666559999999999491e+02
-9.502720000000000482e+02
-9.175040000000000191e+02
-9.011200000000000045e+02
-9.502720000000000482e+02
-9.338880000000000337e+02
-9.502720000000000482e+02
-8.847359999999999900e+02
-9.338880000000000337e+02
-9.502720000000000482e+02
-1.081344000000000051e+03
-1.048576000000000022e+03
-1.032192000000000007e+03
-8.847359999999999900e+02
-8.192000000000000455e+02
-8.192000000000000455e+02
-9.011200000000000045e+02
-9.666559999999999491e+02
-1.015807999999999993e+03
-9.994239999999999782e+02
-9.994239999999999782e+02
-9.338880000000000337e+02
-9.011200000000000045e+02
-9.175040000000000191e+02
-9.830399999999999636e+02
-9.830399999999999636e+02
-9.502720000000000482e+02
-9.338880000000000337e+02
-9.175040000000000191e+02
-9.666559999999999491e+02
-9.666559999999999491e+02
-9.502720000000000482e+02
-9.338880000000000337e+02
-9.338880000000000337e+02
-9.338880000000000337e+02
-9.666559999999999491e+02
-9.175040000000000191e+02
-9.175040000000000191e+02
-9.338880000000000337e+02
-9.502720000000000482e+02
-9.830399999999999636e+02
-9.994239999999999782e+02
-9.666559999999999491e+02
-9.502720000000000482e+02
-9.666559999999999491e+02
-9.338880000000000337e+02
-9.011200000000000045e+02
-8.847359999999999900e+02
-9.011200000000000045e+02
-9.502720000000000482e+02
-9.011200000000000045e+02
-8.683519999999999754e+02
-8.847359999999999900e+02
-8.683519999999999754e+02
-8.847359999999999900e+02
-9.338880000000000337e+02
-9.502720000000000482e+02
-9.666559999999999491e+02
-9.666559999999999491e+02
-9.175040000000000191e+02
-9.175040000000000191e+02
-9.338880000000000337e+02
-9.666559999999999491e+02
-9.994239999999999782e+02
-9.830399999999999636e+02
-9.175040000000000191e+02
-8.683519999999999754e+02
-8.683519999999999754e+02
-8.847359999999999900e+02
-9.338880000000000337e+02
-9.502720000000000482e+02
-9.502720000000000482e+02
-9.502720000000000482e+02
-9.011200000000000045e+02
-9.175040000000000191e+02
-9.011200000000000045e+02
-9.830399999999999636e+02
-9.994239999999999782e+02
-9.994239999999999782e+02
-9.175040000000000191e+02
-8.847359999999999900e+02
-8.847359999999999900e+02
-9.830399999999999636e+02
-1.048576000000000022e+03
-1.064960000000000036e+03
-9.830399999999999636e+02
-8.847359999999999900e+02
-8.847359999999999900e+02
-9.175040000000000191e+02
-9.175040000000000191e+02
-9.338880000000000337e+02
-9.666559999999999491e+02
-9.666559999999999491e+02
-9.666559999999999491e+02
-9.338880000000000337e+02
-9.666559999999999491e+02
-1.015807999999999993e+03
-1.064960000000000036e+03
-1.032192000000000007e+03
-9.338880000000000337e+02
-7.864320000000000164e+02
-7.700480000000000018e+02
-8.028160000000000309e+02
-9.338880000000000337e+02
-9.666559999999999491e+02
-9.338880000000000337e+02
-9.011200000000000045e+02
-9.338880000000000337e+02
-9.666559999999999491e+02
-9.666559999999999491e+02
-8.847359999999999900e+02
-9.011200000000000045e+02
-9.175040000000000191e+02
-9.338880000000000337e+02
-9.502720000000000482e+02
-9.175040000000000191e+02
-9.502720000000000482e+02
-9.666559999999999491e+02
-9.502720000000000482e+02
-9.338880000000000337e+02
-9.666559999999999491e+02
-9.338880000000000337e+02
-9.666559999999999491e+02
-9.338880000000000337e+02
-9.175040000000000191e+02
-9.830399999999999636e+02
-9.666559999999999491e+02
-9.502720000000000482e+02
-9.175040000000000191e+02
-9.338880000000000337e+02
-9.666559999999999491e+02
-9.666559999999999491e+02
-9.502720000000000482e+02
-9.502720000000000482e+02
-9.338880000000000337e+02
-9.175040000000000191e+02
-9.175040000000000191e+02
-9.175040000000000191e+02
-9.994239999999999782e+02
-9.994239999999999782e+02
-9.994239999999999782e+02
-9.175040000000000191e+02
-8.847359999999999900e+02
-8.847359999999999900e+02
-9.666559999999999491e+02
-9.666559999999999491e+02
-9.502720000000000482e+02
-9.175040000000000191e+02
-9.338880000000000337e+02
-9.338880000000000337e+02
-9.830399999999999636e+02
-9.666559999999999491e+02
-9.502720000000000482e+02
-9.338880000000000337e+02
-9.338880000000000337e+02
-9.011200000000000045e+02
-9.502720000000000482e+02
-9.175040000000000191e+02
-9.338880000000000337e+02
-9.502720000000000482e+02
-9.338880000000000337e+02
-9.502720000000000482e+02
-9.338880000000000337e+02
-9.338880000000000337e+02
-9.666559999999999491e+02
-9.011200000000000045e+02
-9.175040000000000191e+02
-9.175040000000000191e+02
-9.175040000000000191e+02
-9.338880000000000337e+02
-9.502720000000000482e+02
-9.338880000000000337e+02
-9.830399999999999636e+02
-9.830399999999999636e+02
-9.830399999999999636e+02
-9.502720000000000482e+02
-9.011200000000000045e+02
-8.847359999999999900e+02
-8.847359999999999900e+02
-9.502720000000000482e+02
-9.666559999999999491e+02
-9.502720000000000482e+02
-9.502720000000000482e+02
-9.502720000000000482e+02
-9.502720000000000482e+02
-9.666559999999999491e+02
-9.666559999999999491e+02
-9.338880000000000337e+02
-9.502720000000000482e+02
-9.175040000000000191e+02
-9.175040000000000191e+02
-9.175040000000000191e+02
-9.175040000000000191e+02
-9.338880000000000337e+02
-9.502720000000000482e+02
-9.666559999999999491e+02
-9.830399999999999636e+02
-9.502720000000000482e+02
-9.175040000000000191e+02
-9.502720000000000482e+02
-1.081344000000000051e+03
-1.196031999999999925e+03
-1.196031999999999925e+03
-9.994239999999999782e+02
-7.536639999999999873e+02
-7.372799999999999727e+02
-8.028160000000000309e+02
-9.338880000000000337e+02
-9.666559999999999491e+02
-9.175040000000000191e+02
-9.011200000000000045e+02
-9.338880000000000337e+02
-9.338880000000000337e+02
-9.830399999999999636e+02
-9.502720000000000482e+02
-9.338880000000000337e+02
-9.175040000000000191e+02
-9.175040000000000191e+02
-9.175040000000000191e+02
-9.338880000000000337e+02
-9.338880000000000337e+02
-9.502720000000000482e+02
-9.502720000000000482e+02
-9.502720000000000482e+02
-9.175040000000000191e+02
-9.175040000000000191e+02
-9.011200000000000045e+02
-9.338880000000000337e+02
-9.338880000000000337e+02
-9.338880000000000337e+02
-9.666559999999999491e+02
-9.830399999999999636e+02
-9.175040000000000191e+02
-9.175040000000000191e+02
-9.175040000000000191e+02
-9.502720000000000482e+02
-9.830399999999999636e+02
-9.830399999999999636e+02
-9.502720000000000482e+02
-9.502720000000000482e+02
-9.338880000000000337e+02
-9.338880000000000337e+02
-9.338880000000000337e+02
-9.666559999999999491e+02
-9.338880000000000337e+02
-9.175040000000000191e+02
-9.338880000000000337e+02
-9.338880000000000337e+02
-9.338880000000000337e+02
-9.502720000000000482e+02
-9.502720000000000482e+02
-9.666559999999999491e+02
-9.666559999999999491e+02
-9.338880000000000337e+02
-9.175040000000000191e+02
-9.338880000000000337e+02
-9.175040000000000191e+02
-9.175040000000000191e+02
-9.502720000000000482e+02
-9.175040000000000191e+02
-9.338880000000000337e+02
-9.338880000000000337e+02
-9.338880000000000337e+02
-9.666559999999999491e+02
-9.502720000000000482e+02
-9.338880000000000337e+02
-9.338880000000000337e+02
-9.338880000000000337e+02
-9.338880000000000337e+02
-9.338880000000000337e+02
-9.338880000000000337e+02
-9.175040000000000191e+02
-9.338880000000000337e+02
-9.502720000000000482e+02
-9.502720000000000482e+02
-9.338880000000000337e+02
-9.502720000000000482e+02
-9.502720000000000482e+02
-9.666559999999999491e+02
-9.502720000000000482e+02
-9.338880000000000337e+02
-9.502720000000000482e+02
-9.502720000000000482e+02
-9.502720000000000482e+02
-9.502720000000000482e+02
-9.502720000000000482e+02
-9.338880000000000337e+02
-9.338880000000000337e+02
-9.338880000000000337e+02
-9.338880000000000337e+02
-9.338880000000000337e+02
-9.175040000000000191e+02
-9.338880000000000337e+02
-9.502720000000000482e+02
-9.666559999999999491e+02
-9.666559999999999491e+02
-9.502720000000000482e+02
-9.338880000000000337e+02
-9.666559999999999491e+02
-9.666559999999999491e+02
-9.666559999999999491e+02
-9.338880000000000337e+02
-9.011200000000000045e+02
-9.502720000000000482e+02
-9.666559999999999491e+02
-9.666559999999999491e+02
-9.502720000000000482e+02
-9.338880000000000337e+02
-9.338880000000000337e+02
-9.502720000000000482e+02
-9.338880000000000337e+02
-9.338880000000000337e+02
-9.175040000000000191e+02
-9.338880000000000337e+02
-9.338880000000000337e+02
-9.338880000000000337e+02
-9.502720000000000482e+02
-9.338880000000000337e+02
-9.502720000000000482e+02
-9.502720000000000482e+02
-9.666559999999999491e+02
-9.502720000000000482e+02
-9.502720000000000482e+02
-9.338880000000000337e+02
-9.338880000000000337e+02
-9.175040000000000191e+02
-9.011200000000000045e+02
-9.830399999999999636e+02
-1.146880000000000109e+03
-1.261567999999999984e+03
-1.179647999999999911e+03
-9.175040000000000191e+02
-7.208959999999999582e+02
-7.372799999999999727e+02
-8.192000000000000455e+02
-9.338880000000000337e+02
-9.666559999999999491e+02
-9.338880000000000337e+02
-9.338880000000000337e+02
-9.502720000000000482e+02
-9.666559999999999491e+02
-9.502720000000000482e+02
-9.338880000000000337e+02
-9.175040000000000191e+02
-9.338880000000000337e+02
-9.338880000000000337e+02
-9.502720000000000482e+02
-9.502720000000000482e+02
-9.502720000000000482e+02
-9.338880000000000337e+02
-9.502720000000000482e+02
-9.175040000000000191e+02
-9.338880000000000337e+02
-9.338880000000000337e+02
-9.338880000000000337e+02
-9.502720000000000482e+02
-9.830399999999999636e+02
-9.175040000000000191e+02
-9.338880000000000337e+02
-9.338880000000000337e+02
-9.175040000000000191e+02
-9.502720000000000482e+02
-9.666559999999999491e+02
-9.502720000000000482e+02
-9.502720000000000482e+02
-9.338880000000000337e+02
-9.502720000000000482e+02
-9.338880000000000337e+02
-9.338880000000000337e+02
-9.338880000000000337e+02
-9.338880000000000337e+02
-9.666559999999999491e+02
-9.666559999999999491e+02
-9.175040000000000191e+02
-9.175040000000000191e+02
-9.502720000000000482e+02
-9.666559999999999491e+02
